Hawking secondary spectra for each particle type.
energy/particle         photon       electron           nu_e          nu_mu         nu_tau         proton
    1.00000e-06    7.30774e+25    0.00000e+00    5.28407e+22    1.58307e+17    0.00000e+00    0.00000e+00
    1.05200e-06    6.97966e+25    0.00000e+00    4.86284e+22    1.57559e+17    0.00000e+00    0.00000e+00
    1.10700e-06    6.61961e+25    0.00000e+00    6.22059e+22    2.24715e+17    0.00000e+00    0.00000e+00
    1.16400e-06    6.34669e+25    0.00000e+00    6.16610e+22    2.18169e+17    0.00000e+00    0.00000e+00
    1.22500e-06    6.01650e+25    0.00000e+00    6.84745e+22    3.26225e+17    0.00000e+00    0.00000e+00
    1.28900e-06    5.72417e+25    0.00000e+00    7.60064e+22    3.12027e+17    0.00000e+00    0.00000e+00
    1.35600e-06    5.45579e+25    0.00000e+00    8.81892e+22    3.65709e+17    0.00000e+00    0.00000e+00
    1.42700e-06    5.19635e+25    0.00000e+00    8.92238e+22    4.20920e+17    0.00000e+00    0.00000e+00
    1.50100e-06    4.96732e+25    0.00000e+00    1.07142e+23    5.69625e+17    0.00000e+00    0.00000e+00
    1.57900e-06    4.69870e+25    0.00000e+00    1.07020e+23    6.62553e+17    0.00000e+00    0.00000e+00
    1.66100e-06    4.47628e+25    0.00000e+00    1.34246e+23    7.39837e+17    0.00000e+00    0.00000e+00
    1.74800e-06    4.28562e+25    0.00000e+00    1.31659e+23    9.02527e+17    0.00000e+00    0.00000e+00
    1.83900e-06    4.05857e+25    0.00000e+00    1.55954e+23    1.02967e+18    0.00000e+00    0.00000e+00
    1.93500e-06    3.88373e+25    0.00000e+00    1.71541e+23    1.25893e+18    0.00000e+00    0.00000e+00
    2.03500e-06    3.71482e+25    0.00000e+00    1.83456e+23    1.32884e+18    0.00000e+00    0.00000e+00
    2.14100e-06    3.51699e+25    0.00000e+00    2.15537e+23    1.83688e+18    0.00000e+00    0.00000e+00
    2.25300e-06    3.39289e+25    0.00000e+00    2.43376e+23    1.83510e+18    0.00000e+00    0.00000e+00
    2.37000e-06    3.17813e+25    0.00000e+00    2.53876e+23    2.51060e+18    0.00000e+00    0.00000e+00
    2.49300e-06    3.10000e+25    0.00000e+00    2.94314e+23    2.53486e+18    0.00000e+00    0.00000e+00
    2.62300e-06    2.87105e+25    0.00000e+00    3.25511e+23    3.43062e+18    0.00000e+00    0.00000e+00
    2.76000e-06    2.82464e+25    0.00000e+00    3.44907e+23    3.40153e+18    0.00000e+00    0.00000e+00
    2.90400e-06    2.62058e+25    0.00000e+00    4.05924e+23    4.01896e+18    0.00000e+00    0.00000e+00
    3.05500e-06    2.54283e+25    0.00000e+00    4.10014e+23    4.52182e+18    0.00000e+00    0.00000e+00
    3.21400e-06    2.39129e+25    0.00000e+00    4.59223e+23    6.00559e+18    0.00000e+00    0.00000e+00
    3.38100e-06    2.30870e+25    0.00000e+00    5.18535e+23    6.76096e+18    0.00000e+00    0.00000e+00
    3.55700e-06    2.17688e+25    0.00000e+00    5.31144e+23    7.79881e+18    0.00000e+00    0.00000e+00
    3.74200e-06    2.08696e+25    0.00000e+00    5.93483e+23    9.29238e+18    0.00000e+00    0.00000e+00
    3.93700e-06    1.99061e+25    0.00000e+00    6.47927e+23    1.03850e+19    0.00000e+00    0.00000e+00
    4.14200e-06    1.88517e+25    0.00000e+00    7.11455e+23    1.27322e+19    0.00000e+00    0.00000e+00
    4.35800e-06    1.81021e+25    0.00000e+00    7.49246e+23    1.33883e+19    0.00000e+00    0.00000e+00
    4.58500e-06    1.71012e+25    0.00000e+00    8.52896e+23    1.81349e+19    0.00000e+00    0.00000e+00
    4.82400e-06    1.64893e+25    0.00000e+00    8.78888e+23    1.83297e+19    0.00000e+00    0.00000e+00
    5.07500e-06    1.55471e+25    0.00000e+00    9.79184e+23    2.44825e+19    0.00000e+00    0.00000e+00
    5.33900e-06    1.49545e+25    0.00000e+00    1.03863e+24    2.47278e+19    0.00000e+00    0.00000e+00
    5.61700e-06    1.40982e+25    0.00000e+00    1.13593e+24    3.31605e+19    0.00000e+00    0.00000e+00
    5.90900e-06    1.34986e+25    0.00000e+00    1.21646e+24    3.30503e+19    0.00000e+00    0.00000e+00
    6.21700e-06    1.28914e+25    0.00000e+00    1.31185e+24    4.60523e+19    0.00000e+00    0.00000e+00
    6.54100e-06    1.22334e+25    0.00000e+00    1.40185e+24    4.56136e+19    0.00000e+00    0.00000e+00
    6.88100e-06    1.17800e+25    0.00000e+00    1.49970e+24    5.21310e+19    0.00000e+00    0.00000e+00
    7.24000e-06    1.10687e+25    0.00000e+00    1.60663e+24    5.94919e+19    0.00000e+00    0.00000e+00
    7.61700e-06    1.06901e+25    0.00000e+00    1.71130e+24    7.74625e+19    0.00000e+00    0.00000e+00
    8.01300e-06    1.00562e+25    0.00000e+00    1.83777e+24    8.86797e+19    0.00000e+00    0.00000e+00
    8.43000e-06    9.62613e+24    0.00000e+00    1.95124e+24    1.17584e+20    0.00000e+00    0.00000e+00
    8.86900e-06    9.12514e+24    0.00000e+00    2.06247e+24    1.35639e+20    0.00000e+00    0.00000e+00
    9.33100e-06    8.77580e+24    0.00000e+00    2.21647e+24    1.67391e+20    0.00000e+00    0.00000e+00
    9.81700e-06    8.22882e+24    0.00000e+00    2.36105e+24    1.91607e+20    0.00000e+00    0.00000e+00
    1.03300e-05    8.01557e+24    0.00000e+00    2.46304e+24    2.30645e+20    0.00000e+00    0.00000e+00
    1.08700e-05    7.52719e+24    0.00000e+00    2.65782e+24    2.69362e+20    0.00000e+00    0.00000e+00
    1.14300e-05    7.27948e+24    0.00000e+00    2.75064e+24    3.24243e+20    0.00000e+00    0.00000e+00
    1.20300e-05    6.83874e+24    0.00000e+00    2.89541e+24    3.66972e+20    0.00000e+00    0.00000e+00
    1.26500e-05    6.65222e+24    0.00000e+00    3.07843e+24    4.48913e+20    0.00000e+00    0.00000e+00
    1.33100e-05    6.20962e+24    0.00000e+00    3.18181e+24    4.95922e+20    0.00000e+00    0.00000e+00
    1.40100e-05    6.00602e+24    0.00000e+00    3.39579e+24    5.33164e+20    0.00000e+00    0.00000e+00
    1.47300e-05    5.65465e+24    0.00000e+00    3.44600e+24    6.93163e+20    0.00000e+00    0.00000e+00
    1.55000e-05    5.45790e+24    0.00000e+00    3.69554e+24    7.88692e+20    0.00000e+00    0.00000e+00
    1.63100e-05    5.12673e+24    0.00000e+00    3.75652e+24    8.52577e+20    0.00000e+00    0.00000e+00
    1.71600e-05    4.91238e+24    0.00000e+00    3.97015e+24    1.02535e+21    0.00000e+00    0.00000e+00
    1.80500e-05    4.66250e+24    0.00000e+00    4.06302e+24    1.29096e+21    0.00000e+00    0.00000e+00
    1.89900e-05    4.44158e+24    0.00000e+00    4.24537e+24    1.44392e+21    0.00000e+00    0.00000e+00
    1.99800e-05    4.20760e+24    0.00000e+00    4.33787e+24    1.74936e+21    0.00000e+00    0.00000e+00
    2.10200e-05    4.03022e+24    0.00000e+00    4.48249e+24    1.89072e+21    0.00000e+00    0.00000e+00
    2.21200e-05    3.82858e+24    0.00000e+00    4.55756e+24    2.41745e+21    0.00000e+00    0.00000e+00
    2.32700e-05    3.66107e+24    0.00000e+00    4.70440e+24    2.46985e+21    0.00000e+00    0.00000e+00
    2.44800e-05    3.46569e+24    0.00000e+00    4.77064e+24    3.19554e+21    0.00000e+00    0.00000e+00
    2.57500e-05    3.32327e+24    0.00000e+00    4.86336e+24    3.36623e+21    0.00000e+00    0.00000e+00
    2.70900e-05    3.14791e+24    0.00000e+00    4.91466e+24    4.23572e+21    0.00000e+00    0.00000e+00
    2.85000e-05    3.00115e+24    0.00000e+00    4.96953e+24    4.54716e+21    0.00000e+00    0.00000e+00
    2.99900e-05    2.83865e+24    0.00000e+00    5.01008e+24    5.17434e+21    0.00000e+00    0.00000e+00
    3.15500e-05    2.72801e+24    0.00000e+00    5.03615e+24    5.90003e+21    0.00000e+00    0.00000e+00
    3.31900e-05    2.57141e+24    0.00000e+00    5.01203e+24    6.92025e+21    0.00000e+00    0.00000e+00
    3.49200e-05    2.46785e+24    0.00000e+00    5.01948e+24    7.46307e+21    0.00000e+00    0.00000e+00
    3.67400e-05    2.32612e+24    0.00000e+00    4.96083e+24    8.63136e+21    0.00000e+00    0.00000e+00
    3.86500e-05    2.24140e+24    0.00000e+00    4.94810e+24    1.06377e+22    0.00000e+00    0.00000e+00
    4.06600e-05    2.11117e+24    0.00000e+00    4.84606e+24    1.11745e+22    0.00000e+00    0.00000e+00
    4.27800e-05    2.02192e+24    0.00000e+00    4.78919e+24    1.35715e+22    0.00000e+00    0.00000e+00
    4.50100e-05    1.93170e+24    0.00000e+00    4.65958e+24    1.41501e+22    0.00000e+00    0.00000e+00
    4.73500e-05    1.82080e+24    0.00000e+00    4.55621e+24    1.69141e+22    0.00000e+00    0.00000e+00
    4.98200e-05    1.76733e+24    0.00000e+00    4.41388e+24    1.74480e+22    0.00000e+00    0.00000e+00
    5.24100e-05    1.64844e+24    0.00000e+00    4.26907e+24    2.07413e+22    0.00000e+00    0.00000e+00
    5.51400e-05    1.61113e+24    0.00000e+00    4.12705e+24    2.20141e+22    0.00000e+00    0.00000e+00
    5.80100e-05    1.49229e+24    0.00000e+00    3.94749e+24    2.54245e+22    0.00000e+00    0.00000e+00
    6.10300e-05    1.45159e+24    0.00000e+00    3.78537e+24    2.72597e+22    0.00000e+00    0.00000e+00
    6.42100e-05    1.35656e+24    0.00000e+00    3.59018e+24    3.14562e+22    0.00000e+00    0.00000e+00
    6.75600e-05    1.31640e+24    0.00000e+00    3.42265e+24    3.24444e+22    0.00000e+00    0.00000e+00
    7.10700e-05    1.23292e+24    0.00000e+00    3.21020e+24    3.71857e+22    0.00000e+00    0.00000e+00
    7.47700e-05    1.19539e+24    0.00000e+00    3.03790e+24    4.19374e+22    0.00000e+00    0.00000e+00
    7.86700e-05    1.11466e+24    0.00000e+00    2.82760e+24    4.46775e+22    0.00000e+00    0.00000e+00
    8.27600e-05    1.08650e+24    0.00000e+00    2.64583e+24    5.09698e+22    0.00000e+00    0.00000e+00
    8.70700e-05    1.01658e+24    0.00000e+00    2.45128e+24    5.32628e+22    0.00000e+00    0.00000e+00
    9.16100e-05    9.83615e+23    0.00000e+00    2.27129e+24    6.18135e+22    0.00000e+00    0.00000e+00
    9.63800e-05    9.27754e+23    0.00000e+00    2.09783e+24    6.51490e+22    0.00000e+00    0.00000e+00
    1.01400e-04    8.92090e+23    0.00000e+00    1.92067e+24    7.19025e+22    0.00000e+00    0.00000e+00
    1.06700e-04    8.46396e+23    0.00000e+00    1.77364e+24    7.75443e+22    0.00000e+00    0.00000e+00
    1.12200e-04    8.09413e+23    0.00000e+00    1.60295e+24    8.56058e+22    0.00000e+00    0.00000e+00
    1.18100e-04    7.74368e+23    0.00000e+00    1.47811e+24    9.20223e+22    0.00000e+00    0.00000e+00
    1.24200e-04    7.37887e+23    0.00000e+00    1.32879e+24    1.01144e+23    0.00000e+00    0.00000e+00
    1.30700e-04    7.06055e+23    0.00000e+00    1.22527e+24    1.08503e+23    0.00000e+00    0.00000e+00
    1.37500e-04    6.69656e+23    0.00000e+00    1.09767e+24    1.19717e+23    0.00000e+00    0.00000e+00
    1.44700e-04    6.41269e+23    0.00000e+00    1.00564e+24    1.27449e+23    0.00000e+00    0.00000e+00
    1.52200e-04    6.07468e+23    0.00000e+00    9.03184e+23    1.41077e+23    0.00000e+00    0.00000e+00
    1.60100e-04    5.83118e+23    0.00000e+00    8.26803e+23    1.49833e+23    0.00000e+00    0.00000e+00
    1.68400e-04    5.51957e+23    0.00000e+00    7.46436e+23    1.63596e+23    0.00000e+00    0.00000e+00
    1.77200e-04    5.29247e+23    0.00000e+00    6.84196e+23    1.74954e+23    0.00000e+00    0.00000e+00
    1.86400e-04    4.99305e+23    0.00000e+00    6.24379e+23    1.88927e+23    0.00000e+00    0.00000e+00
    1.96100e-04    4.81822e+23    0.00000e+00    5.73559e+23    2.04255e+23    0.00000e+00    0.00000e+00
    2.06400e-04    4.52973e+23    0.00000e+00    5.32878e+23    2.17845e+23    0.00000e+00    0.00000e+00
    2.17100e-04    4.40843e+23    0.00000e+00    4.93493e+23    2.35826e+23    0.00000e+00    0.00000e+00
    2.28400e-04    4.12243e+23    0.00000e+00    4.68337e+23    2.50220e+23    0.00000e+00    0.00000e+00
    2.40300e-04    4.04182e+23    0.00000e+00    4.38790e+23    2.68898e+23    0.00000e+00    0.00000e+00
    2.52800e-04    3.75591e+23    0.00000e+00    4.23610e+23    2.86334e+23    0.00000e+00    0.00000e+00
    2.66000e-04    3.70214e+23    0.00000e+00    4.02548e+23    3.06989e+23    0.00000e+00    0.00000e+00
    2.79800e-04    3.47174e+23    0.00000e+00    3.96073e+23    3.25273e+23    0.00000e+00    0.00000e+00
    2.94400e-04    3.39787e+23    0.00000e+00    3.84804e+23    3.48128e+23    0.00000e+00    0.00000e+00
    3.09700e-04    3.21636e+23    0.00000e+00    3.81157e+23    3.66290e+23    0.00000e+00    0.00000e+00
    3.25900e-04    3.13776e+23    0.00000e+00    3.76371e+23    3.91526e+23    0.00000e+00    0.00000e+00
    3.42800e-04    2.99677e+23    0.00000e+00    3.77548e+23    4.08944e+23    0.00000e+00    0.00000e+00
    3.60700e-04    2.92306e+23    0.00000e+00    3.78092e+23    4.36632e+23    0.00000e+00    0.00000e+00
    3.79500e-04    2.82735e+23    0.00000e+00    3.84517e+23    4.56770e+23    0.00000e+00    0.00000e+00
    3.99200e-04    2.74261e+23    0.00000e+00    3.89903e+23    4.84639e+23    0.00000e+00    0.00000e+00
    4.20000e-04    2.66648e+23    0.00000e+00    3.96951e+23    5.07861e+23    0.00000e+00    0.00000e+00
    4.41900e-04    2.58437e+23    0.00000e+00    4.08200e+23    5.33662e+23    0.00000e+00    0.00000e+00
    4.64900e-04    2.54899e+23    0.00000e+00    4.13936e+23    5.57874e+23    0.00000e+00    0.00000e+00
    4.89100e-04    2.46181e+23    2.86478e+07    4.28921e+23    5.86178e+23    0.00000e+00    0.00000e+00
    5.14500e-04    2.45116e+23    3.64402e+23    4.36516e+23    6.11717e+23    0.00000e+00    0.00000e+00
    5.41300e-04    2.37215e+23    3.65661e+23    4.52185e+23    6.36377e+23    0.00000e+00    0.00000e+00
    5.69500e-04    2.36464e+23    3.76047e+23    4.62155e+23    6.63551e+23    0.00000e+00    0.00000e+00
    5.99200e-04    2.30856e+23    3.78667e+23    4.78146e+23    6.90528e+23    0.00000e+00    0.00000e+00
    6.30400e-04    2.30969e+23    3.91503e+23    4.88681e+23    7.16865e+23    0.00000e+00    0.00000e+00
    6.63200e-04    2.26626e+23    3.95328e+23    5.03509e+23    7.42960e+23    0.00000e+00    0.00000e+00
    6.97700e-04    2.27498e+23    4.09089e+23    5.14427e+23    7.69943e+23    0.00000e+00    0.00000e+00
    7.34100e-04    2.25700e+23    4.15095e+23    5.29881e+23    7.95464e+23    0.00000e+00    0.00000e+00
    7.72300e-04    2.27095e+23    4.29458e+23    5.38202e+23    8.18661e+23    0.00000e+00    0.00000e+00
    8.12500e-04    2.24756e+23    4.34652e+23    5.54261e+23    8.46610e+23    0.00000e+00    0.00000e+00
    8.54800e-04    2.29123e+23    4.48568e+23    5.62275e+23    8.69030e+23    0.00000e+00    0.00000e+00
    8.99300e-04    2.27223e+23    4.56991e+23    5.76701e+23    8.95265e+23    0.00000e+00    0.00000e+00
    9.46100e-04    2.31287e+23    4.67902e+23    5.85193e+23    9.17198e+23    0.00000e+00    0.00000e+00
    9.95400e-04    2.30386e+23    4.77330e+23    5.96292e+23    9.42173e+23    0.00000e+00    0.00000e+00
    1.04700e-03    2.34878e+23    4.86939e+23    6.04707e+23    9.62430e+23    0.00000e+00    0.00000e+00
    1.10200e-03    2.36540e+23    4.97165e+23    6.14499e+23    9.84530e+23    1.03075e+17    0.00000e+00
    1.15900e-03    2.40307e+23    5.04723e+23    6.22674e+23    1.00229e+24    1.13898e+17    0.00000e+00
    1.21900e-03    2.43100e+23    5.14341e+23    6.29719e+23    1.02630e+24    1.25291e+17    0.00000e+00
    1.28300e-03    2.47690e+23    5.19427e+23    6.37458e+23    1.03728e+24    1.38597e+17    0.00000e+00
    1.35000e-03    2.51423e+23    5.31196e+23    6.43082e+23    1.06126e+24    1.52668e+17    0.00000e+00
    1.42000e-03    2.55562e+23    5.32502e+23    6.47752e+23    1.07004e+24    1.68578e+17    0.00000e+00
    1.49400e-03    2.60584e+23    5.44117e+23    6.53515e+23    1.09349e+24    1.85766e+17    0.00000e+00
    1.57200e-03    2.64495e+23    5.44440e+23    6.56425e+23    1.09681e+24    2.05122e+17    0.00000e+00
    1.65400e-03    2.70606e+23    5.54170e+23    6.60089e+23    1.11701e+24    2.26187e+17    0.00000e+00
    1.74000e-03    2.74021e+23    5.54682e+23    6.61138e+23    1.12100e+24    2.49490e+17    0.00000e+00
    1.83000e-03    2.81089e+23    5.60313e+23    6.62709e+23    1.13262e+24    2.75062e+17    0.00000e+00
    1.92600e-03    2.83754e+23    5.62079e+23    6.63098e+23    1.13850e+24    3.03445e+17    0.00000e+00
    2.02600e-03    2.91386e+23    5.65235e+23    6.63450e+23    1.14519e+24    3.34869e+17    0.00000e+00
    2.13100e-03    2.94799e+23    5.66360e+23    6.62429e+23    1.14856e+24    3.68728e+17    0.00000e+00
    2.24200e-03    3.01041e+23    5.67267e+23    6.59651e+23    1.15128e+24    4.07307e+17    0.00000e+00
    2.35900e-03    3.04726e+23    5.67905e+23    6.57077e+23    1.15219e+24    4.48465e+17    0.00000e+00
    2.48200e-03    3.10812e+23    5.67100e+23    6.53099e+23    1.15069e+24    4.95747e+17    0.00000e+00
    2.61100e-03    3.14821e+23    5.65911e+23    6.50337e+23    1.15018e+24    5.45334e+17    0.00000e+00
    2.74700e-03    3.19446e+23    5.63641e+23    6.42203e+23    1.14342e+24    6.03050e+17    0.00000e+00
    2.89000e-03    3.23704e+23    5.61433e+23    6.39157e+23    1.14232e+24    6.63847e+17    0.00000e+00
    3.04100e-03    3.27598e+23    5.56822e+23    6.30431e+23    1.13130e+24    7.33852e+17    0.00000e+00
    3.19900e-03    3.31950e+23    5.54557e+23    6.25236e+23    1.12632e+24    8.08146e+17    0.00000e+00
    3.36600e-03    3.33939e+23    5.47697e+23    6.14688e+23    1.11343e+24    8.92712e+17    0.00000e+00
    3.54100e-03    3.38081e+23    5.44169e+23    6.07859e+23    1.10585e+24    9.83723e+17    0.00000e+00
    3.72500e-03    3.39158e+23    5.36731e+23    5.97536e+23    1.08993e+24    1.08545e+18    0.00000e+00
    3.91900e-03    3.42980e+23    5.31117e+23    5.88480e+23    1.07864e+24    1.19704e+18    0.00000e+00
    4.12300e-03    3.43449e+23    5.23715e+23    5.77206e+23    1.06134e+24    1.32013e+18    0.00000e+00
    4.33800e-03    3.45692e+23    5.15661e+23    5.66260e+23    1.04613e+24    1.45691e+18    0.00000e+00
    4.56400e-03    3.46307e+23    5.07438e+23    5.55086e+23    1.02732e+24    1.60575e+18    0.00000e+00
    4.80100e-03    3.46826e+23    4.99031e+23    5.41896e+23    1.00895e+24    1.77251e+18    0.00000e+00
    5.05100e-03    3.47055e+23    4.89328e+23    5.30711e+23    9.89467e+23    1.95209e+18    0.00000e+00
    5.31400e-03    3.46671e+23    4.80165e+23    5.15570e+23    9.67107e+23    2.15675e+18    0.00000e+00
    5.59100e-03    3.45809e+23    4.68479e+23    5.03775e+23    9.46698e+23    2.37379e+18    0.00000e+00
    5.88200e-03    3.44598e+23    4.59437e+23    4.87681e+23    9.21423e+23    2.62425e+18    0.00000e+00
    6.18800e-03    3.42750e+23    4.46479e+23    4.75872e+23    9.00110e+23    2.88762e+18    0.00000e+00
    6.51100e-03    3.40119e+23    4.37243e+23    4.59105e+23    8.73423e+23    3.19311e+18    0.00000e+00
    6.85000e-03    3.37674e+23    4.23431e+23    4.46029e+23    8.50434e+23    3.51581e+18    0.00000e+00
    7.20600e-03    3.33685e+23    4.13188e+23    4.30203e+23    8.22912e+23    3.88364e+18    0.00000e+00
    7.58200e-03    3.30556e+23    3.99650e+23    4.15975e+23    7.98249e+23    4.27950e+18    0.00000e+00
    7.97600e-03    3.25297e+23    3.88195e+23    4.00358e+23    7.70856e+23    4.72404e+18    0.00000e+00
    8.39200e-03    3.21821e+23    3.75023e+23    3.85603e+23    7.45040e+23    5.20844e+18    0.00000e+00
    8.82900e-03    3.15229e+23    3.62466e+23    3.70675e+23    7.17503e+23    5.76425e+18    0.00000e+00
    9.28800e-03    3.11115e+23    3.49906e+23    3.55098e+23    6.90691e+23    6.35452e+18    0.00000e+00
    9.77200e-03    3.03791e+23    3.36632e+23    3.40730e+23    6.63477e+23    6.99449e+18    0.00000e+00
    1.02800e-02    2.99013e+23    3.24490e+23    3.25336e+23    6.36493e+23    7.71778e+18    0.00000e+00
    1.08200e-02    2.91304e+23    3.10658e+23    3.10877e+23    6.09204e+23    8.50624e+18    0.00000e+00
    1.13800e-02    2.85481e+23    2.98727e+23    2.95947e+23    5.82250e+23    9.40195e+18    0.00000e+00
    1.19700e-02    2.77732e+23    2.84925e+23    2.81901e+23    5.55728e+23    1.03437e+19    0.00000e+00
    1.26000e-02    2.71119e+23    2.73104e+23    2.67161e+23    5.29455e+23    1.14395e+19    0.00000e+00
